954.947924
954.921173
954.923593
954.945162
954.547799
955.145649
954.769548
955.105074
957.869489
960.213330
959.657767
958.852364
958.097223
959.163820
960.977382
962.863090
963.722384
961.040729
959.740357
961.528607
963.943588
966.107003
966.126988
965.189172
965.897110
965.389784
967.057813
973.048304
978.057594
984.252997
985.266475
991.958304
991.541481
990.786372
983.616238
983.685650
982.098570
981.803682
983.298304
982.133951
981.845234
979.986373
974.214709
974.059010
973.841931
972.369431
971.051003
969.394735
963.271612
960.049203
957.945263
959.789784
960.317066
961.293909
956.029750
953.906273
957.034894
959.822077
961.886945
956.927086
955.032535
953.993578
954.243460
952.817805
954.265441
954.255071
950.158748
952.080696
954.713595
959.158985
959.002447
956.898181
950.145062
944.156324
944.468836
945.045780
953.645198
981.651218
1021.719616
1072.715126
1129.877148
1194.211485
1240.863708
1236.834610
1186.637316
1120.095907
1066.024423
1021.922491
994.998021
986.892584
976.135393
967.476542
967.097869
967.257262
966.112889
964.020050
957.498306
951.623710
951.888313
947.306627
944.945440
941.125201
937.915157
937.335332
943.190713
941.871826
942.913269
940.853372
936.187752
937.498477
941.181911
939.624928
940.507107
939.921742
938.310063
936.445563
939.304698
940.646245
939.208833
937.911863
938.461238
941.193902
939.747468
940.689767
939.622947
939.935372
937.337048
940.678334
941.409544
943.851569
944.925874
942.111476
939.403005
940.830476
943.400418
945.090657
943.682199
941.676393
939.864364
941.882385
945.416305
947.638004
946.657911
943.387150
940.958403
939.940960
947.059630
949.092618
947.801472
949.093425
950.615271
953.798445
954.332642
954.207887
955.765848
954.348177
953.972248
959.007062
960.104678
962.036092
962.517303
962.018288
963.035757
966.935745
969.678437
971.086256
971.125728
973.124030
976.139747
980.223438
981.826269
983.124954
986.134237
988.899289
988.994611
990.818488
993.086357
994.922544
998.424745
999.101013
996.935584
998.839036
1001.395126
1006.004926
1002.807554
1000.056980
999.665905
1000.173471
1001.844755
1002.081340
997.825302
991.987037
991.271572
990.015457
990.070755
988.277366
982.900895
979.104542
977.240098
975.256590
974.142270
973.597637
970.715700
968.812268
967.066296
964.899769
966.107118
962.693183
961.020821
958.204255
955.797508
958.926029
958.547047
960.800085
962.045924
957.285361
953.294213
953.070187
950.884364
954.682458
955.169637
958.031174
953.881985
952.968511
955.982733
954.828416
954.851965
953.959893
953.898288
954.320465
955.044211
958.068184
956.462298
953.932218
951.966894
953.725753
956.110158
957.886013
959.819652
959.139014
959.678801
958.421328
960.356298
961.273924
959.148855
954.616326
953.936962
958.517570
960.180394
962.822076
962.861402
963.905503
959.946631
958.808420
959.466366
963.204102
966.047199
963.322587
959.802670
959.033283
959.049526
961.735546
962.126648
961.929361
959.332223
962.127596
961.849037
961.309100
962.217201
960.219177
958.230293
959.913940
960.659764
961.134141
961.183777
956.258635
955.805984
958.877636
962.156157
963.129080
960.179834
959.799600
958.207627
958.103021
957.176416
959.425978
959.764356
958.334006
956.282797
954.684202
956.859752
959.447815
958.046497
958.965837
959.828059
958.808064
958.815566
960.552790
960.632054
960.077286
957.081669
957.260019
959.107028
959.944907
957.924293
955.718999
953.898186
957.956566
956.921377
958.581430
961.788155
955.766299
953.107389
956.993668
959.871578
962.748457
961.758024
960.486154
960.299944
953.843432
960.439766
959.913890
960.124668
959.804185
959.939048
960.060565
962.003324
962.250303
960.675403
961.289133
962.333989
965.113700
967.770114
967.712052
965.893972
964.909871
965.071527
967.213720
969.217774
976.226499
979.988824
980.966949
981.035776
989.097350
994.765820
996.138279
993.977993
986.602476
981.869557
981.022068
981.100876
983.135772
982.073096
981.162298
977.052863
972.917626
974.240171
974.011120
975.975441
972.736652
970.177759
968.827126
964.195380
963.714891
959.063040
959.921738
958.998511
960.686977
962.862403
963.198079
961.505068
960.149965
952.607435
953.911015
954.106352
956.847091
960.447164
958.980277
956.295453
954.078477
959.011378
963.391226
961.715332
958.880392
951.657691
953.066572
952.097936
953.120070
952.238259
949.712328
970.320009
1006.587169
1051.121255
1100.567556
1162.180565
1213.054467
1228.268296
1202.151024
1145.287922
1092.867053
1046.644847
1012.551848
996.453977
987.253818
977.171208
976.118213
973.781118
970.030429
963.940455
961.101565
955.874164
950.554821
947.725207
943.184881
945.155466
946.939795
949.672579
950.881770
948.957187
945.488418
941.393865
939.685480
943.254896
946.079406
942.137450
943.871400
941.725519
945.672225
944.724600
945.838961
944.725781
941.242910
939.092694
940.080045
944.715236
946.141412
943.439955
942.864710
943.148029
945.439604
946.876846
947.154933
947.462998
943.881450
942.885828
943.533325
944.033037
946.230618
947.042362
944.174196
941.178835
943.115680
945.378830
948.863677
949.883564
946.804200
943.848895
946.898829
949.721604
951.988196
950.817762
950.828521
948.647805
948.217679
952.589306
956.170536
955.996056
957.137074
954.860235
957.122623
960.190618
961.035870
958.043660
961.007602
957.977013
961.040936
963.922056
968.611943
973.235482
975.853140
972.978697
974.964147
977.142584
980.332447
981.509347
982.064647
980.912892
982.697224
986.920699
989.963754
994.495940
995.669498
995.431053
996.006560
1001.169717
999.890304
998.763671
1001.121634
998.201262
1000.185184
999.924934
999.224760
1000.908985
998.294561
999.026132
998.938371
997.617496
996.509428
992.161362
989.909200
986.049865
984.932176
985.859375
987.809636
984.647153
979.310924
977.197546
975.959154
976.913592
977.220277
975.580863
969.369476
968.813104
967.788628
969.312161
968.804072
967.608549
963.670225
961.909068
962.168435
962.435380
964.863166
964.788591
962.272866
960.504299
963.114002
964.144726
964.819323
960.799865
961.005510
960.217616
963.482758
963.053381
964.734498
961.807087
962.758315
964.119725
963.106756
964.031636
962.147410
964.973745
964.884231
965.103794
966.129534
966.762108
967.465012
968.809848
968.718646
966.823801
966.246519
968.808742
967.969366
970.600751
967.015027
964.811515
965.085023
968.678929
969.822299
970.863757
970.991015
970.268232
971.018482
969.959946
972.018874
971.707649
971.076988
966.901774
967.139371
968.925665
971.763820
970.593621
968.052236
967.143309
967.909590
970.680661
970.718332
971.210593
970.824713
971.046796
970.001350
970.220853
972.832505
970.986950
968.412725
966.224767
968.498875
970.045801
970.139764
971.220960
971.198001
964.839138
967.555672
967.146720
970.788624
971.441775
968.124272
967.193182
967.196335
969.245029
968.923630
968.973215
969.041654
967.285674
967.160764
969.851765
971.161749
970.044410
968.780937
967.054832
967.793337
970.795187
971.068834
968.591722
969.679464
969.327402
969.111002
969.152384
972.164504
971.248711
969.075884
967.230693
967.857833
967.955127
971.865380
969.838102
968.887971
968.110308
967.960873
970.042561
972.912223
979.005077
977.210947
974.619398
976.309186
980.115367
982.281999
981.213552
979.719719
978.977725
976.911798
977.688095
980.360763
985.922172
987.946772
987.208635
993.968862
1000.965481
1003.092802
1004.134412
999.176490
994.134084
993.188552
993.910068
991.607237
989.443209
986.875417
984.365503
986.346404
986.199400
988.138429
985.038304
981.959679
978.906793
979.856755
978.867304
976.378933
975.537613
971.955868
965.921781
967.210526
968.061114
970.774116
969.275887
965.371971
963.099827
965.038162
966.083371
968.874326
967.288755
964.584570
963.340952
959.864260
962.828930
965.025367
964.075276
963.130937
963.135511
964.694838
967.148791
966.146242
962.158494
956.041156
950.067691
950.811636
965.997880
994.179177
1036.665978
1082.912064
1131.703375
1192.298905
1241.101461
1257.289379
1231.916249
1177.124473
1120.134874
1068.230250
1027.055495
1008.118448
1000.634501
987.274986
976.890238
974.848619
976.627774
976.021032
972.015931
964.078466
955.145789
953.934534
951.242799
953.898855
950.732393
948.919842
945.877583
949.037489
950.085197
949.728830
949.046445
946.887335
946.209470
944.851476
944.007392
945.883606
945.926789
944.168925
943.894381
945.680311
946.746994
946.667715
947.071621
945.052420
942.239521
943.851079
946.057098
946.831093
945.132922
945.128239
943.086745
943.468035
945.753845
947.908786
947.963912
945.047470
944.187944
942.374097
945.852541
947.016383
948.502257
946.619133
945.049728
945.046842
945.881965
947.620958
946.914182
946.255068
945.106008
946.827289
948.986967
951.227506
951.147887
949.495138
950.062553
951.185852
953.950040
955.731513
955.033194
955.100190
951.904608
953.937458
959.996924
963.095370
966.075339
964.142757
965.934298
964.811567
968.183540
973.146021
976.793351
975.109076
975.144489
976.856510
979.313351
983.033728
987.684843
988.068209
986.258615
989.837636
992.940163
995.296400
996.169896
993.947005
995.906936
995.109832
997.107489
1002.028563
997.841109
999.010845
998.115756
997.331443
1000.292532
999.956729
999.927668
994.927658
991.431149
990.245183
989.405438
989.029943
986.169047
980.624105
978.714735
977.031346
973.793735
974.647341
970.951740
970.228954
964.883065
960.952388
963.510779
965.380020
963.821499
961.004699
958.511965
959.115577
959.020004
959.079251
958.293172
956.128489
952.699560
951.653805
954.041568
956.834666
952.795394
951.518727
950.864766
951.218027
954.826092
953.971193
951.875247
952.070634
952.976628
954.265320
954.741866
957.043262
955.014893
950.632850
949.108817
950.788017
953.695481
952.983038
955.247852
954.111790
954.341237
952.931176
955.004083
958.081987
959.153760
957.820888
953.926324
953.995746
954.004108
956.061007
956.076595
953.943663
953.100933
955.199107
956.699910
957.847546
955.477138
956.288654
954.260853
955.898483
958.870643
959.458349
960.015004
955.646465
953.296736
952.124274
953.295352
955.293390
957.440461
956.925626
955.534520
955.021104
953.916132
957.973644
958.233622
954.993168
955.353041
953.855869
955.701335
954.846594
954.885560
955.035424
954.433509
954.695619
954.578016
956.775452
952.640887
952.056332
951.013849
950.835012
952.141492
953.649393
952.945318
953.060558
952.953027
954.005502
954.884011
955.842966
952.930698
950.014481
947.899226
948.041882
949.209712
950.516898
951.882797
953.009078
952.974479
951.419349
951.204078
955.102427
956.137199
951.772086
947.175849
947.951457
951.560900
954.502990
955.143154
950.856829
949.012049
946.962796
952.759559
953.861595
954.069403
951.500470
950.085517
949.839128
953.186153
953.971448
953.959943
950.795395
950.763714
952.266148
956.761666
959.222433
958.232835
959.017490
958.118093
960.891911
962.831610
962.281137
959.417867
958.915942
959.955586
961.829655
968.308245
970.988249
975.115521
975.893520
978.063771
977.444559
979.262319
980.142829
976.830064
974.214700
971.235992
968.729058
973.146861
972.061820
972.872864
969.974776
964.416811
960.962477
960.842373
960.135198
959.231149
956.985516
952.949772
951.242934
951.376636
947.953545
946.171120
943.591885
944.847831
947.844615
948.673224
946.995117
940.822928
939.784539
940.257724
939.032424
941.254803
943.041958
942.402693
939.162032
938.177111
942.200017
944.783999
943.750136
940.235829
939.198945
936.820724
933.979020
932.997891
931.130743
934.077158
941.672399
971.213313
1019.021614
1065.044449
1116.068258
1167.045399
1218.938351
1242.775885
1225.933458
1174.906393
1116.185601
1062.537829
1013.843905
987.188852
979.096723
974.034838
968.168152
959.106603
954.027382
952.712566
953.825232
951.308868
947.178708
939.107090
935.298752
935.101565
933.018928
933.931882
932.882724
927.993916
924.688867
926.945666
929.302523
929.947843
930.013466
928.050911
923.517941
923.788599
925.701664
928.123990
925.193635
923.898924
925.804613
925.971426
928.821613
931.065759
929.026618
928.253396
927.050998
925.823988
927.841718
929.038150
930.816568
928.693044
925.994438
928.823555
930.852799
928.622405
927.223496
926.976162
927.069333
928.732751
929.932502
931.220777
928.986215
929.259874
928.176592
930.036504
929.018024
931.894108
932.189581
931.109399
926.754995
929.331917
930.023050
933.138036
931.118161
933.276296
931.795924
931.970161
932.942816
937.319948
937.513999
937.917672
937.102601
936.696999
940.970436
941.790566
944.100576
945.449742
941.999013
944.092881
948.221124
952.783721
952.639086
948.995760
952.809333
955.303494
960.319440
962.847517
966.285694
965.706068
968.086527
969.014670
972.991248
976.867716
976.766502
976.931315
975.118300
976.079558
982.229819
984.852911
987.783463
986.035977
984.903127
986.215487
986.684740
988.852846
989.964610
987.859769
986.780094
989.228258
986.197004
986.375246
985.139008
981.874489
976.939219
972.082452
973.263003
972.955648
969.623372
964.775230
960.147122
957.004343
955.212148
959.093175
957.678431
953.281569
949.729789
949.986471
949.032322
951.088818
949.316670
948.228040
945.781195
941.798800
943.233160
943.143705
945.028231
942.002738
940.168978
939.932177
942.481118
945.952034
944.956123
942.905138
941.062259
940.051257
940.804089
942.189342
940.846213
939.820195
939.137257
938.925388
938.962711
943.611739
942.808669
941.122982
938.964427
939.987439
939.776757
939.624701
937.839134
937.901479
937.925364
938.253948
942.904732
943.260515
943.310580
941.033467
937.922397
940.048067
940.913603
941.937861
944.129645
941.180612
940.732254
940.774349
942.287643
945.854331
945.854038
944.334820
942.193078
941.318728
944.878998
947.327213
945.888634
943.046868
944.811976
944.046281
946.914709
948.064562
945.726408
943.746322
940.814926
941.843377
943.801793
943.855383
941.661090
939.854557
942.542026
941.658792
944.070353
943.718738
944.927699
943.809154
941.192679
939.506251
941.008025
942.329600
940.215516
940.163156
939.925722
938.789431
940.979028
945.194938
944.354775
942.923635
940.014362
936.957491
938.790873
940.165848
940.977892
942.558005
941.975853
938.270483
937.987461
945.053935
941.952321
939.559285
938.903896
940.957532
942.641891
941.567417
943.154690
941.096778
940.841058
940.630757
943.226257
947.165102
941.865618
939.999543
938.137108
939.956330
942.031276
944.373216
942.977737
940.292170
940.221106
937.888784
941.290100
943.833101
942.092836
942.975622
942.903767
941.289639
944.048123
941.979818
942.197842
940.162981
942.174862
943.009131
945.584333
949.068598
949.257710
948.899457
948.863119
948.985980
951.115028
955.059195
954.903339
954.341150
948.709396
949.694024
957.558195
966.076357
970.233859
973.808244
976.962792
979.384049
978.969551
978.868149
975.012012
974.501413
972.202502
969.875315
968.776593
969.887346
968.923138
965.843002
961.553968
960.820433
959.983277
959.779196
957.868280
952.922580
948.036863
946.019566
944.865356
946.733966
943.725634
944.082314
939.904760
937.158245
939.129252
942.190171
940.134829
939.919800
938.031626
937.092316
937.993574
940.718913
938.883032
937.423014
935.946153
938.743076
938.032467
939.901519
942.338968
940.123495
938.104927
932.859209
932.224155
929.824380
926.275209
928.508294
941.332968
969.842856
1014.958825
1059.967897
1110.069688
1168.064960
1220.361126
1243.980833
1232.055752
1182.125269
1120.058352
1058.945429
1009.134379
977.793569
967.914113
963.113622
953.007386
948.144696
944.888235
944.816823
945.006369
943.951182
937.675736
932.994892
929.984222
926.657438
926.536062
926.882182
923.373824
922.116351
923.461178
920.820065
924.013427
925.719925
926.353558
924.718527
922.053727
919.152997
921.784911
926.242281
925.838581
926.685934
926.016353
922.992238
924.066771
926.862934
926.234759
926.015155
925.155832
926.647078
927.164920
926.871878
927.269590
925.786757
926.057784
926.470241
929.815608
930.138102
928.060044
929.257296
926.127555
925.749925
930.096870
932.974737
934.381117
933.109360
932.217404
930.143061
931.909474
933.148402
935.154844
931.222135
929.967065
931.695877
934.146702
937.871634
937.267813
938.879222
938.307438
937.414424
937.805530
940.123356
940.223286
940.080437
938.802185
941.705695
946.270193
949.074470
947.644978
949.744815
950.225981
947.876776
950.224445
953.216975
954.822877
953.256876
955.180169
955.659564
961.072152
964.180588
965.210180
967.900260
968.210028
969.708908
973.771319
975.026119
974.964375
976.900412
978.210005
977.184657
978.867032
982.863142
985.285192
985.113204
984.893685
983.719101
988.041768
989.856451
989.736569
989.962270
987.016490
987.069047
988.857481
990.985984
990.983591
987.975583
988.015121
986.916016
985.296689
983.120348
977.822324
976.343531
974.587081
970.895452
970.180487
970.390160
966.866717
963.470815
961.355387
961.215932
960.962814
962.004767
961.392225
960.300757
957.080845
956.050627
956.350263
957.141587
956.004679
955.038422
952.146408
950.890859
952.906913
953.813960
955.042263
951.955810
949.144980
949.751599
949.857433
951.218137
952.064277
951.330715
949.258515
951.011414
954.109003
957.943258
954.925449
953.791048
954.153224
954.177656
954.951794
957.928801
957.028061
956.177045
952.745875
951.023800
956.118295
958.095524
957.165848
956.066939
954.945197
954.913228
956.312870
960.076965
958.186517
956.327520
958.007824
956.948939
957.071319
958.085165
956.628216
957.209046
956.648370
956.998882
958.941399
961.520833
960.876325
959.115963
960.179652
956.857900
959.717275
962.240598
960.997766
959.866884
959.933017
959.871533
960.059588
962.100561
959.632726
959.566825
958.016593
955.958042
960.303145
961.915764
961.905416
958.771359
957.349105
957.279941
960.900488
960.878552
958.174864
957.751638
957.916902
957.897569
957.989743
962.468611
959.699429
957.692483
958.383896
958.014620
959.139698
960.669171
959.820287
959.043547
957.932350
957.391144
959.128602
962.836315
960.827406
959.911787
958.188529
958.173567
961.157269
960.719321
961.870538
959.272701
958.713944
959.145725
960.753241
962.120724
960.896054
960.397410
959.006691
960.154140
960.733504
960.878438
962.025375
958.452457
958.036961
958.858244
958.914307
962.020019
964.361551
959.735855
959.932506
957.913257
958.925997
962.045558
960.170787
961.006169
960.773768
959.862718
959.210806
961.946175
963.051980
962.209693
960.168259
957.691147
961.201293
964.872679
966.119050
965.853750
962.084753
963.728005
967.334888
967.669083
967.672229
968.765533
966.993937
969.197686
974.001184
980.058644
983.779913
983.921470
988.111556
993.500060
997.861064
998.632362
997.732768
991.110509
988.237699
986.296607
985.250557
986.067321
984.272370
981.165668
980.091204
979.217491
977.788501
980.817209
977.002550
972.901868
971.839502
967.257053
964.909589
962.164731
961.608673
959.189615
956.873900
952.502183
953.864224
953.940286
952.236836
952.099437
949.916589
949.063349
951.936539
953.957486
954.156767
950.156598
946.683322
947.313263
949.231463
951.953521
949.784943
949.937908
950.038045
948.662752
945.907928
947.001187
943.139006
938.216297
938.272824
941.391330
963.805161
996.765875
1039.299219
1078.669438
1126.816348
1181.238432
1218.644036
1224.166978
1188.238726
1129.751835
1077.187346
1023.604962
983.853217
969.994395
963.933139
957.078379
950.036500
950.194920
951.735928
950.887509
946.314877
941.102224
933.059674
928.001365
930.325835
931.468565
927.726778
929.047119
924.304989
925.103833
926.397021
925.819988
925.888760
923.953414
921.326802
921.486534
924.106743
927.183141
927.248072
925.868046
921.858320
920.058998
920.147883
921.746248
925.152616
925.913350
923.849809
924.208775
921.032855
920.934957
919.946301
919.940410
920.238331
918.633443
922.877958
923.545629
926.176819
920.690558
920.815158
916.795575
922.225455
920.981274
920.943601
915.884051
915.205341
919.693137
921.849598
927.115902
926.619873
924.993682
921.902979
919.428476
922.268133
924.002114
925.065477
921.956416
923.710671
923.967946
928.505103
925.860443
927.862234
926.622548
925.081682
925.334155
924.913121
924.724114
925.841234
925.081476
926.976467
929.562829
934.116275
936.116182
935.588938
934.037514
931.183380
933.139312
934.913735
941.196031
939.705898
941.558061
941.228060
942.028210
945.154380
949.795143
951.357274
952.865835
952.149107
949.755430
952.782910
959.789308
962.926421
960.097485
959.229143
958.232421
961.141460
965.127179
963.944067
967.860970
966.981095
968.117374
968.859308
971.346342
971.322774
970.158442
968.111791
965.806037
964.456345
964.817428
962.695998
960.173787
960.362320
957.067916
957.905835
956.771343
951.878781
953.154500
950.991578
948.419318
942.808091
942.398070
941.033229
935.779710
937.124648
935.048453
936.344597
939.566159
939.067365
935.158929
933.718382
932.249245
935.488829
934.042205
933.234550
931.066540
929.694918
931.143478
935.848264
935.883734
932.107441
931.178417
930.633488
933.353484
933.143307
927.952416
926.230034
927.791177
928.017903
923.225892
926.927101
931.925035
932.791839
931.062607
927.941733
925.972566
931.382560
937.095340
937.855914
933.102061
926.581815
925.612935
931.860300
934.765169
933.887410
930.193700
927.091380
929.605560
933.920687
935.402110
935.814163
938.347329
931.528390
931.747193
933.161760
932.869636
933.059865
933.956367
931.920496
933.343399
935.656812
937.652590
937.881900
935.199367
934.256603
933.553454
935.116529
934.804491
931.950572
929.595422
931.925446
930.821462
933.820855
935.309956
938.228270
935.114001
931.748634
931.754285
937.051914
935.557347
937.956473
938.802994
935.075856
932.735444
930.974215
930.615958
930.039289
931.959853
932.612032
934.923261
934.992234
932.796073
934.166194
934.832055
933.577397
929.940067
927.814851
932.838094
936.634607
936.161063
933.684409
929.985138
930.949985
935.099818
934.752848
931.094828
930.211790
930.945126
930.900585
931.086528
928.996206
928.452887
928.067165
928.559638
929.160166
933.096067
931.732051
929.856582
928.213163
927.825494
931.855162
932.034546
931.735106
932.052799
931.991615
930.403412
934.100144
935.860270
940.187363
940.882132
939.235237
938.660444
940.238312
943.089850
946.132819
943.907286
941.168835
943.986091
951.070288
959.845683
966.157871
962.975875
955.175204
947.174356
954.785219
955.710740
958.762319
953.784362
947.758629
943.817421
945.984041
947.831748
944.212579
943.068544
938.254343
934.102185
933.146227
934.127027
931.785519
929.848922
928.995814
926.005966
929.197977
929.935626
930.753373
931.066972
929.056764
930.552368
933.304753
932.125479
923.241567
913.954490
913.618076
917.256683
924.028144
931.348088
934.213134
929.182008
921.923588
917.203030
914.919745
920.062615
918.987061
919.073393
916.524947
916.968256
931.910670
962.294353
1007.849509
1060.992164
1118.723971
1180.071274
1229.114471
1237.126597
1193.998666
1127.136655
1064.890428
1004.613944
965.875610
948.179634
943.336585
931.206168
926.876266
923.079381
922.757308
923.133538
923.088927
915.660400
910.936073
906.377133
908.559084
912.850565
912.634515
911.746486
910.625364
907.135971
908.824011
911.010361
910.146935
911.909132
911.132050
909.976163
909.952981
912.056058
914.166709
909.933698
912.339849
907.758180
909.536267
909.062682
910.454438
908.382715
909.954166
910.025458
907.968081
909.931894
912.079821
910.896232
912.013174
910.918400
912.854691
913.335190
911.432258
913.029664
912.183504
909.311418
910.661760
913.454471
916.243447
917.977596
915.659438
910.173929
910.185850
911.435009
910.963303
912.957078
912.750302
912.430688
917.831994
920.238205
918.753680
919.050043
916.681307
918.339602
920.283384
923.787123
923.755671
921.219448
919.249397
919.218089
926.004912
929.064754
931.098764
927.905358
930.437165
929.799361
933.828814
934.998014
936.007665
936.747233
934.719910
934.843587
936.921240
936.998749
939.711799
944.842207
947.893402
952.758769
956.217202
958.107506
954.921328
956.354454
955.268167
954.982341
958.233580
961.944137
962.888342
964.801325
964.292254
961.362143
963.246586
967.914760
965.284472
963.967668
963.042779
961.991806
960.902123
959.062560
960.053616
959.766652
954.035933
952.591649
950.112833
950.327667
950.062268
946.913731
942.958425
941.686003
942.825011
942.184090
941.123476
936.964929
935.625347
930.411394
934.995756
934.967405
939.116884
932.882570
932.247557
931.070597
931.125532
930.751130
931.068220
933.058205
933.665239
931.743504
933.720348
935.117900
933.162208
930.623161
932.040750
930.663314
935.000408
938.062098
938.534670
935.297381
935.983650
933.758796
933.562066
937.411670
938.063778
937.942271
933.240762
931.231153
935.463880
938.780208
939.667030
935.888625
934.260030
936.674874
939.897654
944.126551
943.308819
942.318228
938.551279
939.004605
940.948294
941.030500
939.182505
940.658584
941.271180
940.993766
943.988394
943.689971
941.980407
939.119170
939.055161
940.114088
941.714570
943.476989
941.974220
938.758917
936.986928
936.092592
945.676116
946.598231
949.778946
951.797766
953.941687
952.930063
946.225485
941.966733
934.169242
931.945948
930.712293
931.162197
935.838193
945.644366
953.103094
963.125797
961.095165
949.830648
939.009556
936.830421
937.031874
939.903516
946.152398
949.948463
950.883445
954.030685
948.705209
945.950797
938.752658
939.894109
942.249986
943.058713
944.897332
945.085444
947.058526
945.914084
946.723400
948.403280
949.014155
951.360169
951.977494
953.252694
953.109458
953.966261
949.654141
948.854025
947.947853
947.248293
950.199932
953.002586
950.975964
950.118434
947.892636
948.247467
950.846853
955.657346
957.955603
956.660244
955.071105
954.290995
952.716512
958.622488
961.941948
959.982290
958.263342
960.074116
966.097013
972.826458
977.995506
986.233725
989.150635
986.935877
987.918231
984.532735
983.083355
979.862403
977.905903
977.040258
975.310478
973.950289
974.050612
973.391731
974.235696
973.885860
975.771758
973.268508
969.996026
968.974702
968.691118
966.405347
967.799348
963.315356
954.892612
950.813959
952.923658
951.159792
949.831791
952.447796
948.860414
951.234153
947.348079
948.277864
949.110060
951.985305
949.762452
949.165436
946.855792
949.105800
950.689207
954.963659
951.274905
946.931542
940.092223
935.985586
933.906357
948.057302
979.887863
1026.128070
1087.843398
1162.819738
1242.903342
1297.217567
1299.108394
1250.203611
1174.485728
1101.919702
1047.877702
1021.191194
1010.959181
1004.132261
990.165174
984.185482
978.972546
977.436938
969.968850
962.663472
952.860661
949.178746
948.315055
944.922871
948.384704
945.031859
942.888412
939.251094
940.930285
941.731597
942.340005
944.117629
940.123372
937.808263
940.724427
940.495339
938.825241
936.915562
939.213550
938.000060
940.459487
941.823961
942.727110
940.946515
941.047598
939.076055
942.036336
944.069420
946.096404
942.924863
940.777706
940.050691
942.261430
946.457571
945.941621
944.679694
940.655829
939.866414
943.702721
944.896754
941.699606
940.115314
940.385082
941.288155
941.052922
946.062209
944.937680
945.737737
944.720627
945.837457
945.103551
945.625017
946.911514
947.043631
945.116543
947.144867
949.475397
951.862482
949.128949
949.644691
952.212919
952.889511
958.167365
960.610495
960.812992
959.926099
959.398451
960.325708
968.095647
971.901749
972.821455
971.772930
970.819217
972.067675
978.064648
983.369915
986.008764
986.118195
985.846564
987.039125
992.721843
997.158315
1000.664985
999.026395
999.231117
1002.086008
1002.134795
1002.894763
1005.394872
1005.888910
1008.073045
1007.643094
1005.821109
1011.321436
1005.973590
1006.012316
1005.659279
1003.986836
1002.210632
998.604403
997.910003
994.929076
991.085811
986.302665
985.383595
984.116297
982.344926
977.863275
974.944479
971.750553
970.501573
970.581967
970.101529
967.912721
965.103205
958.665549
960.611935
962.072680
964.430493
966.072394
962.136300
959.843925
960.075964
962.852541
961.839439
957.801555
954.942483
953.223747
956.508388
958.056408
956.970192
958.668988
959.160436
958.133369
957.824474
960.095352
959.274936
957.912636
957.043926
957.374010
957.969027
961.089020
958.917536
959.993585
960.544185
958.792994
961.976180
960.837328
961.570459
965.078658
962.873778
961.183505
958.832280
961.513568
962.342688
962.908323
964.973167
961.862924
962.932985
965.295654
967.210199
966.810390
967.084478
963.922932
961.965669
963.900518
964.885471
968.369399
961.985612
962.191640
965.046952
969.114726
969.001854
965.909277
963.991556
962.502728
964.049339
968.828792
967.906793
967.379353
963.746321
961.997062
963.835840
967.613146
967.114582
964.144255
963.189934
962.233496
963.912296
965.078500
965.670388
966.505983
964.971118
965.341802
968.630358
967.861158
968.332003
964.499900
963.386797
964.186229
965.905616
967.114628
967.815469
967.213916
966.042604
963.875123
966.019373
965.210567
966.310337
965.651029
964.854913
964.188725
964.212780
965.055182
965.872014
965.789657
965.599248
962.445118
963.986798
965.709063
966.867988
967.209099
963.224866
963.587927
964.196800
965.097359
968.210246
967.368393
962.472667
964.302437
964.852724
969.822596
971.791897
972.040849
969.922686
967.103213
970.829806
974.350690
975.022980
972.749891
970.051099
969.978565
974.243809
977.849179
986.206277
994.108945
997.394528
996.979401
993.303005
993.947663
994.195998
993.716321
991.892526
987.009975
982.140833
982.817491
982.898787
980.740476
979.606011
977.830832
979.950780
981.605689
977.755556
974.008670
965.817130
964.074665
965.245141
962.910316
963.254042
958.265940
957.407459
957.150838
956.031961
957.452572
958.158247
959.961490
960.873248
955.971319
955.957813
960.802720
960.970251
957.133611
954.993430
953.793325
953.881105
957.102878
957.147671
958.137217
954.820658
952.890432
952.720356
950.913532
956.767932
982.738781
1027.164389
1087.555504
1162.939421
1239.140929
1288.997600
1285.049263
1233.075094
1162.674930
1095.862720
1045.132837
1019.738293
1013.222823
1005.164405
995.222991
986.911119
982.905329
982.198833
977.113319
970.349484
967.189294
966.593219
964.334909
962.701196
959.666840
960.891859
962.710527
961.934615
952.257036
939.275512
929.855014
925.302263
925.136179
928.973308
933.178352
934.301707
933.927437
932.997738
934.044852
934.926504
939.098627
940.100520
940.277039
940.016380
939.828769
940.965706
940.966374
942.876534
941.570573
936.961367
937.053525
941.844325
943.968543
941.906518
942.004379
940.076101
940.951530
942.047319
941.582207
941.251489
940.167625
939.784919
937.173441
937.271550
937.509276
936.093643
937.599458
937.791872
937.763717
940.290386
942.632955
943.870147
940.080099
936.945889
935.016408
941.016651
942.867309
941.983285
940.751307
939.546962
937.279169
941.569507
943.879196
946.355798
945.493773
943.038388
945.229695
950.397180
950.981814
951.945758
951.546678
952.064209
957.815889
959.818778
961.066090
958.965804
957.867427
959.729568
960.026669
967.804970
973.823803
977.085464
982.285181
981.916887
979.038772
985.888342
990.984118
989.761851
987.794347
984.918669
982.340953
983.849429
988.888616
992.291572
988.768216
989.128900
987.825439
989.978262
991.030647
992.124803
988.955007
985.849455
984.949489
986.261367
980.426466
973.072619
964.252039
955.818219
957.067051
960.257310
961.015755
956.913015
954.728925
954.392882
954.049239
952.181177
951.384627
950.979157
950.833674
952.939026
949.646116
949.787564
951.016937
950.940498
949.378273
947.182733
947.042820
950.081664
948.062060
946.059056
943.016476
943.817336
943.195265
943.070951
946.728163
948.808903
946.928656
944.802788
941.075958
945.030556
948.755209
951.381318
949.535397
944.908424
946.200670
945.389739
947.761716
948.848109
950.377597
946.089928
942.821776
947.074958
949.638863
951.630586
952.112799
949.588792
948.932557
947.320759
950.800655
952.509876
952.258782
952.637129
953.219465
954.652953
954.728765
956.387089
956.186766
953.462151
950.328344
952.086521
953.357302
953.630126
957.093807
955.892413
956.991107
957.228340
956.349936
955.892749
950.846397
953.968834
957.151398
956.955887
958.957599
956.158064
952.856269
949.225680
949.173333
954.943397
959.381691
958.570589
956.315287
951.000548
949.723461
949.074626
952.730871
951.532813
950.143228
944.591190
946.841587
952.001090
954.896169
959.114528
960.565276
962.229167
962.641365
972.750215
981.825267
978.565824
965.900965
952.301191
942.775127
935.979704
933.355763
935.886832
940.179129
944.184248
947.112195
951.782032
957.923221
965.125187
963.906494
954.906293
944.443246
942.170488
948.080382
950.791601
950.123208
948.627968
948.179627
954.143088
956.038466
956.346393
957.817522
958.398738
957.986021
959.860014
960.356141
958.583982
955.745357
955.988142
961.296914
965.122436
974.103716
982.900697
988.285903
984.633927
981.014779
980.998984
981.252427
981.114700
980.176187
977.092713
973.931016
974.106620
974.140861
974.904286
974.058171
971.195998
966.931370
964.815476
963.440351
961.819685
955.668998
950.039592
948.828418
950.867754
952.804760
954.054391
953.896449
951.902548
948.011532
950.171373
952.196305
951.815590
950.644901
948.745520
945.810130
945.877025
950.702804
952.819796
952.024805
948.136778
948.008778
948.135130
946.801695
944.865257
941.915506
934.820065
935.920378
950.964800
988.746145
1040.409545
1094.298962
1155.305872
1219.201147
1265.818686
1268.090670
1223.026098
1158.111318
1091.359990
1032.868756
1003.240444
999.126924
991.113996
979.966700
975.708325
969.904644
964.799128
957.920117
952.399806
946.652529
943.843958
943.213196
942.722242
942.262858
939.149970
934.237436
928.378668
927.217129
930.592164
934.017060
935.182773
936.338351
936.825639
934.962347
935.974484
936.267024
931.906192
930.910406
928.937770
928.961596
929.597721
934.167754
933.998578
934.056609
933.992881
933.858190
937.002052
938.402825
935.087224
932.999374
931.343197
929.192742
930.955203
932.862310
931.846612
932.865536
928.627405
928.927787
929.809962
934.848847
936.638078
935.944236
935.839263
932.981794
934.085875
936.284171
941.282210
937.825736
936.038455
934.900904
936.834384
939.279275
940.290371
940.949112
939.008651
938.857892
940.126998
941.774933
942.616599
943.244014
943.100231
943.019043
945.204918
947.968793
949.758135
952.282548
949.511686
950.033939
953.511258
957.688303
960.994513
959.857995
960.374144
958.994298
962.107151
964.911465
965.948754
967.454540
967.195047
966.392233
968.992627
973.022805
976.203748
980.113166
980.837306
980.800698
985.975216
989.074070
989.063115
985.080320
984.412389
985.374884
993.281559
997.979329
1000.183639
1001.579941
1002.104214
1001.758796
1002.704667
998.869982
995.402636
992.355181
988.103608
987.453271
987.149670
988.852669
991.009067
989.979004
982.974899
975.298630
972.044438
969.623739
970.427228
968.129887
967.343424
964.098470
965.052206
964.388817
963.640224
960.848885
960.124770
957.674361
963.065561
964.090726
959.962512
959.933865
960.766931
957.902632
960.118944
962.040874
959.753630
958.105358
955.934629
956.742008
957.720300
960.753135
962.074410
961.645778
957.787197
956.995064
958.495807
959.839207
963.421888
958.053212
958.130587
958.333280
960.345811
964.728363
965.524357
964.362974
963.822074
959.033709
963.946890
964.858337
966.959033
964.207611
962.964745
964.965279
964.700977
968.190664
971.564686
968.825691
964.139648
963.495566
961.335439
961.125936
964.346391
961.594702
963.027950
966.376734
967.781638
970.702702
964.810529
966.801477
962.096402
965.909864
969.061804
969.876071
969.123483
969.866262
968.071188
962.143709
963.723755
966.174641
965.077047
968.254692
966.238323
965.423795
968.121477
971.238309
969.848785
965.298939
963.382375
961.888629
962.945075
968.392093
967.035603
965.475145
965.542530
963.888110
965.437268
965.942496
968.113104
970.357311
967.977593
966.487231
967.981276
969.995778
967.051514
965.078991
965.080813
964.004334
964.875556
966.647966
968.284618
966.816722
965.719191
966.189795
968.883903
969.241347
970.285159
964.545499
960.194762
958.362128
961.210510
962.193158
964.127106
963.109926
963.295137
963.061164
964.319008
967.749259
968.254586
965.987564
965.367163
961.769752
965.914470
965.786749
968.998086
970.114109
968.640352
966.741507
968.459073
970.149307
971.079488
969.617647
967.767382
969.148750
973.911222
975.237920
972.407885
970.437370
971.244650
973.931789
981.826416
989.245479
994.721290
999.988434
1003.164883
1001.352279
1001.155718
997.826300
1000.410547
997.090715
997.079070
991.114968
990.700711
988.109830
987.430708
983.257000
984.924034
981.870243
982.550942
982.184086
978.862395
975.796326
970.158652
966.084156
964.008695
963.184959
963.157081
959.797344
958.729463
957.000509
961.298731
962.057323
960.773805
959.933053
959.479971
955.961415
960.651860
961.891432
961.765543
958.956405
958.686786
956.977201
958.987974
963.932790
963.754416
960.842868
957.179271
957.059666
955.714743
952.891707
948.078216
947.021654
950.527595
963.713854
998.251528
1037.828204
1082.267896
1133.317297
1189.990203
1235.964754
1253.063043
1227.408326
1170.759964
1109.172787
1056.852598
1016.061773
994.878925
992.837659
989.587756
987.323277
981.749541
975.193597
967.901923
966.117191
961.100916
954.726629
949.968982
944.740360
936.840558
938.042821
937.847974
939.763231
939.554482
934.986986
936.342864
937.303953
938.922285
938.080738
935.986276
935.869889
938.041058
937.920653
937.140986
936.189823
932.973183
932.886277
934.753547
937.094227
939.059099
940.096362
940.349756
938.217793
935.908028
941.085143
941.105797
938.187305
937.016743
936.226043
937.065145
937.910174
941.210453
939.720645
939.708235
938.116166
939.946490
942.041038
943.008028
942.433851
941.682205
938.753999
942.418881
945.859543
947.854234
946.998041
943.123828
940.857296
941.031820
941.648702
943.059297
943.843333
942.005564
940.020272
942.206099
942.370196
945.294790
944.846743
943.211560
943.892314
946.020600
947.614385
948.935484
948.889984
948.098066
948.931037
950.110871
951.239755
953.204006
954.041107
954.112659
952.829222
953.831613
956.663510
961.077832
962.992382
963.900657
964.016054
967.832807
970.677261
973.158105
971.050891
971.933593
971.163867
969.565492
975.076052
978.994064
976.964344
981.123297
981.381287
983.164242
986.261882
988.702591
989.084669
988.018340
988.965317
989.939472
994.100254
996.124296
995.093736
994.132618
992.056840
993.903234
989.922629
989.984971
988.767267
981.942646
976.060248
974.028613
973.929657
976.013884
974.882971
973.883806
968.991840
972.025948
968.936493
966.001538
962.943017
960.703035
958.439476
959.928400
958.112934
959.084306
963.052587
961.013706
959.104489
959.082120
958.967132
957.676532
959.749063
955.946278
951.376577
954.191586
953.109920
953.034180
954.117791
953.053661
952.164724
952.556018
958.857967
963.064833
959.894339
959.053855
956.294793
955.833594
957.284290
960.107735
957.946365
954.976771
954.546300
958.177353
962.297564
961.162865
958.745075
956.899439
954.811689
956.672412
959.822771
959.215293
957.045002
954.930034
954.287375
956.862623
957.219383
960.818951
960.046877
961.159924
958.862197
962.232026
962.257608
963.110685
962.873246
962.062348
958.357122
959.030251
960.693978
964.960926
964.771069
964.156320
962.018025
964.640315
965.933379
966.287014
961.192173
961.144377
961.661970
967.845346
968.221423
968.099503
962.969436
962.132812
959.097313
956.778402
956.923313
960.520349
960.356594
960.721556
959.856154
965.091313
966.795493
966.985242
965.817389
963.037964
962.004722
962.281343
964.784669
963.247562
961.948582
960.283459
959.954071
959.401615
960.000246
959.070961
960.653467
961.985588
961.758927
958.186855
960.993260
957.917387
961.337869
957.976343
958.846300
959.971645
962.996396
960.815764
960.741487
960.672255
957.032925
958.836431
958.953140
960.065538
962.212873
961.264391
959.999480
960.150851
961.588913
964.099266
965.051747
959.929813
957.198145
962.792925
969.101025
969.899715
969.581431
968.154290
963.045487
962.755940
968.944841
968.996416
968.968200
967.189823
965.889695
970.261555
981.206891
983.804013
987.007357
992.988598
996.811711
994.969018
988.950450
984.692572
981.520748
978.084912
975.019057
976.229912
975.575802
978.403462
977.295385
975.808345
972.998869
972.580102
969.833140
968.303390
967.020654
964.101010
961.024997
956.173299
955.957163
955.694893
958.167606
955.841431
